"Distance [mm]","Br [] - Time='0s'"
0,0.473353731353202
0.112854975829305,0.473442495352459
0.22570995165861,0.473447217352313
0.338564927487915,0.47344102557784
0.45141990331722,0.473434993620478
0.564274879146525,0.473414518271373
0.677129854975829,0.473397672286031
0.789984830805134,0.473378683850763
0.902839806634439,0.473352801928673
1.01569478246374,0.47332347479502
1.12854975829305,0.473290014532539
1.24140473412235,0.473250705334016
1.35425970995166,0.473202514314351
1.46711468578096,0.473151655759394
1.57996966161027,0.473092614596826
1.69282463743957,0.473028071902146
1.80567961326888,0.472957970420798
1.91853458909818,0.472886073272115
2.03138956492749,0.472802943349564
2.14424454075679,0.472715289066026
2.2570995165861,0.472617359227502
2.3699544924154,0.472514282519219
2.48280946824471,0.47240474022612
2.59566444407401,0.47228493857849
2.70851941990332,0.472159932255805
2.82137439573262,0.472031410158482
2.93422937156193,0.47188946575023
3.04708434739123,0.47174530558147
3.15993932322054,0.471589305435068
3.27279429904984,0.471428333572733
3.38564927487915,0.471253988437796
3.49850425070845,0.471076032545079
3.61135922653776,0.4708801180028
3.72421420236706,0.470669952098874
3.83706917819637,0.470453458879679
3.94992415402567,0.470234942255575
4.06277912985498,0.470015754731008
4.17563410568428,0.469791641937705
4.28848908151359,0.469548856991321
4.40134405734289,0.469297715125151
4.5141990331722,0.469050340322131
4.6270540090015,0.468791771888449
4.7399089848308,0.468542049622543
4.85276396066011,0.468288673702887
4.96561893648941,0.468023703664759
5.07847391231872,0.467768590751696
5.19132888814802,0.467504560651245
5.30418386397733,0.467261452739901
5.41703883980663,0.467004639366984
5.52989381563594,0.466749308726334
5.64274879146524,0.466507426593892
5.75560376729455,0.466277355884441
5.86845874312385,0.466049247260241
5.98131371895316,0.465841203069025
6.09416869478246,0.465651223137045
6.20702367061177,0.465471667347162
6.31987864644107,0.465315923834135
6.43273362227038,0.465179288840811
6.54558859809968,0.46505629410466
6.65844357392899,0.464958595231483
6.77129854975829,0.464889807421063
6.8841535255876,0.464853948621847
6.9970085014169,0.464832462032454
7.10986347724621,0.464820675467226
7.22271845307551,0.464851769344237
7.33557342890482,0.464888957041566
7.44842840473412,0.464945707850385
7.56128338056343,0.465039788652258
7.67413835639273,0.465147107213549
7.78699333222204,0.465290678648721
7.89984830805134,0.465457727433113
8.01270328388065,0.465643124261857
8.12555825970995,0.465838530137646
8.23841323553926,0.466056139221951
8.35126821136856,0.466289935971033
8.46412318719787,0.466536677356476
8.57697816302717,0.466805219276292
8.68983313885647,0.467095431697491
8.80268811468578,0.467364987504323
8.91554309051508,0.467652346849771
9.02839806634439,0.467953901467734
9.14125304217369,0.468249469381676
9.254108018003,0.46856630726291
9.36696299383231,0.468873448853759
9.47981796966161,0.46919298610496
9.59267294549091,0.469495648562762
9.70552792132022,0.469829333469364
9.81838289714953,0.470153609580053
9.93123787297883,0.470463055911752
10.0440928488081,0.47077408720607
10.1569478246374,0.47108874707272
10.2698028004667,0.471411792711708
10.382657776296,0.471725684770808
10.4955127521254,0.472036262649901
10.6083677279547,0.472345184480815
10.721222703784,0.472638665726231
10.8340776796133,0.472928888914247
10.9469326554426,0.473200718967964
11.0597876312719,0.473490710850059
11.1726426071012,0.47377181542564
11.2854975829305,0.474039153970599
11.3983525587598,0.474319967299186
11.5112075345891,0.474563171191464
11.6240625104184,0.474833283001743
11.7369174862477,0.475078202844842
11.849772462077,0.47533332500892
11.9626274379063,0.475559982729715
12.0754824137356,0.475790085107144
12.1883373895649,0.476019665658197
12.3011923653942,0.476260932867279
12.4140473412235,0.476476963829223
12.5269023170528,0.476690063078377
12.6397572928821,0.476897201042486
12.7526122687115,0.477106796413549
12.8654672445408,0.477304568857877
12.9783222203701,0.477496239916626
13.0911771961994,0.477698495826049
13.2040321720287,0.477878400129954
13.316887147858,0.478052912446125
13.4297421236873,0.478243158349275
13.5425970995166,0.478403175130662
13.6554520753459,0.478533081066523
13.7683070511752,0.478705919391162
13.8811620270045,0.478858425434496
13.9940170028338,0.478985180846809
14.1068719786631,0.479108168192307
14.2197269544924,0.479239119848422
14.3325819303217,0.47934033809913
14.445436906151,0.479438247046094
14.5582918819803,0.479502918892028
14.6711468578096,0.479538415712683
14.7840018336389,0.47960670052426
14.8968568094682,0.479656159958403
15.0097117852975,0.479695205449303
15.1225667611269,0.479709547784822
15.2354217369562,0.479723363042301
15.3482767127855,0.479717085780709
15.4611316886148,0.479689097564034
15.5739866644441,0.479650912770395
15.6868416402734,0.47960148376047
15.7996966161027,0.479498696097686
15.912551591932,0.479406582363529
16.0254065677613,0.479333134152858
16.1382615435906,0.479160328688405
16.2511165194199,0.479017962353495
16.3639714952492,0.4788771996801
16.4768264710785,0.478671922009288
16.5896814469078,0.478443840304918
16.7025364227371,0.478142041428075
16.8153913985664,0.477884757836597
16.9282463743957,0.477587137605695
17.041101350225,0.477238545490528
17.1539563260543,0.47690507657272
17.2668113018836,0.476525380035441
17.3796662777129,0.476089644118583
17.4925212535423,0.475637353054016
17.6053762293716,0.475127256315303
17.7182312052009,0.474589744991209
17.8310861810302,0.47402137388686
17.9439411568595,0.473425327283881
18.0567961326888,0.472731188115898
18.1696511085181,0.472150918066485
18.2825060843474,0.471459741313416
18.3953610601767,0.47062252306215
18.508216036006,0.469831363165556
18.6210710118353,0.468980655263772
18.7339259876646,0.468139118325121
18.8467809634939,0.467221393425094
18.9596359393232,0.466315243163854
19.0724909151525,0.465329593279951
19.1853458909818,0.46437930470234
19.2982008668111,0.463306258808448
19.4110558426404,0.462268828087772
19.5239108184697,0.461163608086903
19.6367657942991,0.460027960245752
19.7496207701284,0.45891428697447
19.8624757459577,0.457748241701999
19.975330721787,0.456589655453815
20.0881856976163,0.455421900897475
20.2010406734456,0.454276697725749
20.3138956492749,0.453115036126009
20.4267506251042,0.451946635152711
20.5396056009335,0.450821413089238
20.6524605767628,0.449590706029772
20.7653155525921,0.448505149925219
20.8781705284214,0.447343068165024
20.9910255042507,0.446253147596664
21.10388048008,0.445188447922676
21.2167354559093,0.444124880820395
21.3295904317386,0.443104162493209
21.4424454075679,0.442085305134173
21.5553003833972,0.441097005325625
21.6681553592265,0.440124338627741
21.7810103350558,0.439190383376041
21.8938653108851,0.438315435320364
22.0067202867145,0.437449742605612
22.1195752625438,0.436645044377137
22.2324302383731,0.435841195792292
22.3452852142024,0.435069384139291
22.4581401900317,0.434341458999938
22.570995165861,0.433677464510234
22.6838501416903,0.433054448811038
22.7967051175196,0.432409541318095
22.9095600933489,0.431872498733363
23.0224150691782,0.43130378655712
23.1352700450075,0.43081382699462
23.2481250208368,0.430361529728351
23.3609799966661,0.429946984046471
23.4738349724954,0.429542017833913
23.5866899483247,0.429181765927829
23.699544924154,0.428872697013076
23.8123998999833,0.42856521070399
23.9252548758126,0.428327575228129
24.0381098516419,0.428093459884872
24.1509648274712,0.427898172508351
24.2638198033005,0.427764850326016
24.3766747791299,0.427623812563929
24.4895297549592,0.427532142102694
24.6023847307885,0.427461532831782
24.7152397066178,0.427419140160332
24.8280946824471,0.427378637932489
24.9409496582764,0.427350101804939
25.0538046341057,0.427372331452469
25.166659609935,0.427381661628904
25.2795145857643,0.427429190688112
25.3923695615936,0.427477253622857
25.5052245374229,0.427604212579133
25.6180795132522,0.427693351688322
25.7309344890815,0.427794796894841
25.8437894649108,0.427845944667941
25.9566444407401,0.427973044277486
26.0694994165694,0.428143498687158
26.1823543923987,0.428273342780722
26.295209368228,0.428442841933457
26.4080643440573,0.428631883364412
26.5209193198866,0.428814841513474
26.633774295716,0.429010653831373
26.7466292715453,0.429214331146745
26.8594842473746,0.429409047000731
26.9723392232039,0.429616540436308
27.0851941990332,0.429857193404567
27.1980491748625,0.430042992564169
27.3109041506918,0.430278838460473
27.4237591265211,0.430536500919311
27.5366141023504,0.430744592978551
27.6494690781797,0.430954311644895
27.762324054009,0.431157920976678
27.8751790298383,0.431412525476805
27.9880340056676,0.431628050678684
28.1008889814969,0.431841559955218
28.2137439573262,0.432074697374818
28.3265989331555,0.432312037873438
28.4394539089848,0.432498256858828
28.5523088848141,0.432659878206526
28.6651638606434,0.432892728556009
28.7780188364727,0.433025831143669
28.8908738123021,0.433197222967275
29.0037287881314,0.433346947206071
29.1165837639607,0.433510521406523
29.22943873979,0.433659023968727
29.3422937156193,0.433790059485408
29.4551486914486,0.433894072447414
29.5680036672779,0.434017686466761
29.6808586431072,0.434092185674276
29.7937136189365,0.43415128176012
29.9065685947658,0.434215354262636
30.0194235705951,0.434236198967685
30.1322785464244,0.434256310030402
30.2451335222537,0.43429165192034
30.357988498083,0.434223212638265
30.4708434739123,0.434221285875206
30.5836984497416,0.434166843117562
30.6965534255709,0.434048962637184
30.8094084014002,0.433927634365237
30.9222633772295,0.433780689358285
31.0351183530588,0.433620774948296
31.1479733288881,0.433414212865574
31.2608283047174,0.433239374956415
31.3736832805468,0.432956675570044
31.4865382563761,0.432669300376108
31.5993932322054,0.432350457088984
31.7122482080347,0.431987835042956
31.825103183864,0.431591869188368
31.9379581596933,0.431133354526542
32.0508131355226,0.430666345999241
32.1636681113519,0.43012714671486
32.2765230871812,0.429668529858824
32.3893780630105,0.429029906196046
32.5022330388398,0.428417820887234
32.6150880146691,0.427763128244406
32.7279429904984,0.427089265913352
32.8407979663277,0.426367353911476
32.953652942157,0.425588721706192
33.0665079179863,0.424864162169635
33.1793628938156,0.423987414273688
33.2922178696449,0.423092238889542
33.4050728454742,0.422156265046281
33.5179278213036,0.421220299968752
33.6307827971329,0.420284311232686
33.7436377729622,0.419276710211625
33.8564927487915,0.418316580066643
33.9693477246208,0.417297721369448
34.0822027004501,0.416281308681513
34.1950576762794,0.415193730145344
34.3079126521087,0.414194868542548
34.420767627938,0.413113381071435
34.5336226037673,0.412065733727257
34.6464775795966,0.411022894284631
34.7593325554259,0.41000879309585
34.8721875312552,0.408864233951887
34.9850425070845,0.407951186795246
35.0978974829138,0.406929843143403
35.2107524587431,0.406000196086304
35.3236074345724,0.404959885442711
35.4364624104017,0.404118210020674
35.549317386231,0.403121752748791
35.6621723620603,0.402198164339334
35.7750273378896,0.401353757542114
35.8878823137189,0.400511358570212
36.0007372895483,0.39972237156634
36.1135922653776,0.398929459112942
36.2264472412069,0.398234699794143
36.3393022170362,0.397474203484379
36.4521571928655,0.396779520402773
36.5650121686948,0.396151222261267
36.6778671445241,0.39552521939365
36.7907221203534,0.395038917467614
36.9035770961827,0.394492133914132
37.016432072012,0.393980184205369
37.1292870478413,0.393492069188566
37.2421420236706,0.393072339270789
37.3549969994999,0.392662879151589
37.4678519753292,0.392302431862269
37.5807069511585,0.392024976187157
37.6935619269878,0.391753497313001
37.8064169028171,0.391390799941877
37.9192718786464,0.39122449028161
38.0321268544757,0.391065794093585
38.144981830305,0.39095055347936
38.2578368061344,0.390786801267662
38.3706917819637,0.390706712858592
38.483546757793,0.390660573922849
38.5964017336223,0.390627327957981
38.7092567094516,0.390663267088579
38.8221116852809,0.390628836271638
38.9349666611102,0.39068593725453
39.0478216369395,0.390745086754006
39.1606766127688,0.390875926425292
39.2735315885981,0.390937935472393
39.3863865644274,0.391099998457743
39.4992415402567,0.391247722942247
39.612096516086,0.39141538760734
39.7249514919153,0.391517972483782
39.8378064677446,0.391705536754624
39.9506614435739,0.391904629792504
40.0635164194032,0.392140506906849
40.1763713952325,0.392291316703227
40.2892263710618,0.392569072290374
40.4020813468911,0.392820142304766
40.5149363227205,0.393086611334564
40.6277912985498,0.393336959301617
40.7406462743791,0.393610746189539
40.8535012502084,0.393889844873482
40.9663562260377,0.394157025843758
41.079211201867,0.394451005127029
41.1920661776963,0.394702773774745
41.3049211535256,0.395002289931297
41.4177761293549,0.395281628409573
41.5306311051842,0.395599202621695
41.6434860810135,0.395903041814509
41.7563410568428,0.396207180048936
41.8691960326721,0.396420881684706
41.9820510085014,0.396705061055628
42.0949059843307,0.396986506681774
42.20776096016,0.397339104951029
42.3206159359893,0.397500368792004
42.4334709118186,0.39779644129247
42.5463258876479,0.398100305906237
42.6591808634772,0.398320151505462
42.7720358393066,0.398557855395363
42.8848908151359,0.398721554058073
42.9977457909652,0.398940128251965
43.1106007667945,0.399129134442729
43.2234557426238,0.399312642581134
43.3363107184531,0.399452770035218
43.4491656942824,0.399628210415438
43.5620206701117,0.399720828057203
43.674875645941,0.399797830416792
43.7877306217703,0.399896689203623
43.9005855975996,0.399903809664508
44.0134405734289,0.399909352534716
44.1262955492582,0.399936873026399
44.2391505250875,0.399839606353813
44.3520055009168,0.399796778489784
44.4648604767461,0.399823973948088
44.5777154525754,0.399593251257651
44.6905704284047,0.39947204046586
44.803425404234,0.399238782010192
44.9162803800633,0.39897730493178
45.0291353558926,0.398705552585956
45.141990331722,0.39839934117931
45.2548453075513,0.398040189226543
45.3677002833806,0.39765036309346
45.4805552592099,0.397211871481544
45.5934102350392,0.396702456527605
45.7062652108685,0.396144386702377
45.8191201866978,0.395505882698043
45.9319751625271,0.394891188174924
46.0448301383564,0.394147875212485
46.1576851141857,0.393388957717065
46.270540090015,0.392495075862348
46.3833950658443,0.391784362594365
46.4962500416736,0.390690830076259
46.6091050175029,0.389674131383753
46.7219599933322,0.388632593378943
46.8348149691615,0.387439058568009
46.9476699449908,0.386241617569403
47.0605249208201,0.384960020443157
47.1733798966494,0.383734003139734
47.2862348724787,0.382394295807346
47.399089848308,0.380873798881414
47.5119448241374,0.379395808725912
47.6247997999667,0.377845172223865
47.737654775796,0.376204500640753
47.8505097516253,0.374609137198718
47.9633647274546,0.372877332157547
48.0762197032839,0.37115703617858
48.1890746791132,0.369391309935122
48.3019296549425,0.367633808531257
48.4147846307718,0.365886573743022
48.5276396066011,0.364121759966281
48.6404945824304,0.362301760806066
48.7533495582597,0.360487065850797
48.866204534089,0.358476872774351
48.9790595099183,0.356634231489487
49.0919144857476,0.35481127471303
49.2047694615769,0.353102868325817
49.3176244374062,0.351284474274579
49.4304794132355,0.349488436913295
49.5433343890648,0.347686083072119
49.6561893648941,0.345903595381034
49.7690443407235,0.344176507807471
49.8818993165528,0.342474012334371
49.9947542923821,0.34080104106286
50.1076092682114,0.339160747703134
50.2204642440407,0.337558386011124
50.33331921987,0.336009563831994
50.4461741956993,0.334470243581239
50.5590291715286,0.332972194227807
50.6718841473579,0.331541407854861
50.7847391231872,0.330193468427431
50.8975940990165,0.328825159095029
51.0104490748458,0.327557404572383
51.1233040506751,0.326284170253207
51.2361590265044,0.325111342142392
51.3490140023337,0.324021533603289
51.461868978163,0.322963190302036
51.5747239539923,0.321923254691426
51.6875789298216,0.321019983343387
51.8004339056509,0.320160708638954
51.9132888814802,0.319223959206875
52.0261438573095,0.318482377344031
52.1389988331389,0.317760776410625
52.2518538089682,0.317147139788655
52.3647087847975,0.316506135300696
52.4775637606268,0.315962671738566
52.5904187364561,0.315442682403597
52.7032737122854,0.315003235753388
52.8161286881147,0.314577243233609
52.928983663944,0.314193350800778
53.0418386397733,0.313918277630174
53.1546936156026,0.313602337477277
53.2675485914319,0.313367457469506
53.3804035672612,0.313129788504776
53.4932585430905,0.312983354087259
53.6061135189198,0.312749665973688
53.7189684947491,0.312643569476281
53.8318234705784,0.31239988641694
53.9446784464077,0.312516467447997
54.057533422237,0.312414984314233
54.1703883980663,0.312429154390986
54.2832433738956,0.312425347467817
54.3960983497249,0.312426883456985
54.5089533255543,0.312458732865538
54.6218083013836,0.312537475217049
54.7346632772129,0.312618629900793
54.8475182530422,0.312665618069553
54.9603732288715,0.312797089301183
55.0732282047008,0.312942930672393
55.1860831805301,0.313032529051369
55.2989381563594,0.313191935495011
55.4117931321887,0.313290977874212
55.524648108018,0.313465532385816
55.6375030838473,0.313652383708503
55.7503580596766,0.313709366097939
55.8632130355059,0.313862002257458
55.9760680113352,0.3140767033519
56.0889229871645,0.314226714131582
56.2017779629938,0.314297575627677
56.3146329388231,0.314561774904685
56.4274879146524,0.314715530576701
56.5403428904817,0.314858611835204
56.653197866311,0.315002592450418
56.7660528421404,0.315089500899561
56.8789078179697,0.315268727313227
56.991762793799,0.315304760145777
57.1046177696283,0.31539934316258
57.2174727454576,0.315452569312043
57.3303277212869,0.315524338830049
57.4431826971162,0.315548501538817
57.5560376729455,0.315558730187063
57.6688926487748,0.315568654170929
57.7817476246041,0.315511047220715
57.8946026004334,0.315452999254909
58.0074575762627,0.315332863096789
58.120312552092,0.315291716077064
58.2331675279213,0.315089960134458
58.3460225037506,0.314894573438603
58.4588774795799,0.314704047501441
58.5717324554092,0.314529778530433
58.6845874312385,0.314330617575655
58.7974424070678,0.31397792527011
58.9102973828971,0.313654786850329
59.0231523587264,0.313226581395478
59.1360073345558,0.312790417615697
59.2488623103851,0.312342975615427
59.3617172862144,0.311829462590498
59.4745722620437,0.311312956536563
59.587427237873,0.310668471053542
59.7002822137023,0.30996834392771
59.8131371895316,0.309305083623397
59.9259921653609,0.30847856493078
60.0388471411902,0.307684600057263
60.1517021170195,0.30673263190275
60.2645570928488,0.305776832492209
60.3774120686781,0.304761886807438
60.4902670445074,0.303679341608867
60.6031220203367,0.302462956260799
60.715976996166,0.301251419945469
60.8288319719953,0.300009633222116
60.9416869478246,0.298643472508454
61.0545419236539,0.297280941338743
61.1673968994833,0.295735602398576
61.2802518753126,0.294209199663439
61.3931068511419,0.29260620140553
61.5059618269712,0.290912685754995
61.6188168028005,0.28917800911072
61.7316717786298,0.287362097414232
61.8445267544591,0.285497564144375
61.9573817302884,0.283581650606682
62.0702367061177,0.281588024798134
62.183091681947,0.279565608703542
62.2959466577763,0.277542938978565
62.4088016336056,0.275387901057208
62.5216566094349,0.273326022393597
62.6345115852642,0.271243505810242
62.7473665610935,0.269037466449988
