"Distance [mm]","Bt [] - Time='0s'"
0,-0.00256090466487191
0.112854975829305,-0.00277299354654622
0.22570995165861,-0.00299335345147268
0.338564927487915,-0.00321836961150754
0.45141990331722,-0.00344892382146878
0.564274879146525,-0.00368024631826494
0.677129854975829,-0.00391326229152539
0.789984830805134,-0.00414728585240447
0.902839806634439,-0.00438492832429128
1.01569478246374,-0.00462448751460833
1.12854975829305,-0.00486342041771742
1.24140473412235,-0.00510305356383307
1.35425970995166,-0.00534484178958344
1.46711468578096,-0.00558816328424102
1.57996966161027,-0.00583032430158554
1.69282463743957,-0.00607255882433123
1.80567961326888,-0.00631806589709727
1.91853458909818,-0.00656118230899731
2.03138956492749,-0.00680507117817152
2.14424454075679,-0.00704425180225114
2.2570995165861,-0.00728594996734015
2.3699544924154,-0.00752297799687499
2.48280946824471,-0.00776218789057933
2.59566444407401,-0.00798997073956023
2.70851941990332,-0.00822356001822553
2.82137439573262,-0.00844901511543374
2.93422937156193,-0.00866990184764034
3.04708434739123,-0.00888618526155748
3.15993932322054,-0.00909578875561735
3.27279429904984,-0.00929956981104673
3.38564927487915,-0.00949939498161586
3.49850425070845,-0.0096810990943517
3.61135922653776,-0.00984828456578893
3.72421420236706,-0.0100154756376613
3.83706917819637,-0.0101823556360807
3.94992415402567,-0.0103409188995094
4.06277912985498,-0.0104911445009142
4.17563410568428,-0.0106356053366829
4.28848908151359,-0.0107647923695796
4.40134405734289,-0.0108688457790279
4.5141990331722,-0.0109777214044535
4.6270540090015,-0.0110755793531411
4.7399089848308,-0.0111537458754009
4.85276396066011,-0.0112164490884145
4.96561893648941,-0.0112644130251011
5.07847391231872,-0.0113029718629917
5.19132888814802,-0.0113186855443002
5.30418386397733,-0.0113052990144072
5.41703883980663,-0.0112860660622266
5.52989381563594,-0.0112586390379618
5.64274879146524,-0.0111973831667349
5.75560376729455,-0.0111166419162606
5.86845874312385,-0.0110233627225391
5.98131371895316,-0.0109076018733805
6.09416869478246,-0.0107704877271066
6.20702367061177,-0.0106214834788135
6.31987864644107,-0.0104536875863462
6.43273362227038,-0.0102746910662756
6.54558859809968,-0.0100768809770602
6.65844357392899,-0.00988021466227445
6.77129854975829,-0.00966380586220281
6.8841535255876,-0.00943249523748061
6.9970085014169,-0.00919695714115576
7.10986347724621,-0.00895658633478638
7.22271845307551,-0.00873149941087218
7.33557342890482,-0.0085097619580472
7.44842840473412,-0.00828053584891522
7.56128338056343,-0.00807515134618914
7.67413835639273,-0.00786449867134491
7.78699333222204,-0.00767214408785903
7.89984830805134,-0.00749053579512502
8.01270328388065,-0.00733409358935725
8.12555825970995,-0.00718049024264229
8.23841323553926,-0.00704638125329759
8.35126821136856,-0.00693578405811947
8.46412318719787,-0.00683688001268659
8.57697816302717,-0.00676617580204303
8.68983313885647,-0.0067218758454029
8.80268811468578,-0.00667554039523022
8.91554309051508,-0.00666021333541557
9.02839806634439,-0.00667004437537794
9.14125304217369,-0.00667787232977376
9.254108018003,-0.0067251037849416
9.36696299383231,-0.00677747268899203
9.47981796966161,-0.00683890896086563
9.59267294549091,-0.00693687071399023
9.70552792132022,-0.00704266218989329
9.81838289714953,-0.00715003595722749
9.93123787297883,-0.0073029268364657
10.0440928488081,-0.00745079174955154
10.1569478246374,-0.00762968246192144
10.2698028004667,-0.00779949503831122
10.382657776296,-0.0079913072308417
10.4955127521254,-0.00819194970257487
10.6083677279547,-0.00840948919803801
10.721222703784,-0.00862970061325664
10.8340776796133,-0.0088795795875711
10.9469326554426,-0.00914515681525011
11.0597876312719,-0.00942382150080019
11.1726426071012,-0.00970939145380231
11.2854975829305,-0.010026198058157
11.3983525587598,-0.0103267270613339
11.5112075345891,-0.0106531163896033
11.6240625104184,-0.0109940856440851
11.7369174862477,-0.0113505001523151
11.849772462077,-0.011719783361321
11.9626274379063,-0.0120916012338359
12.0754824137356,-0.0124792009746571
12.1883373895649,-0.0128768545922588
12.3011923653942,-0.013279751970188
12.4140473412235,-0.0136955947145401
12.5269023170528,-0.0141201505055703
12.6397572928821,-0.0145574428885145
12.7526122687115,-0.0150064188301389
12.8654672445408,-0.0154529850858598
12.9783222203701,-0.0159175420461394
13.0911771961994,-0.0164088565713471
13.2040321720287,-0.0168993796512764
13.316887147858,-0.0173916741144422
13.4297421236873,-0.0178908216792038
13.5425970995166,-0.0184111172324421
13.6554520753459,-0.0189256545418116
13.7683070511752,-0.0194690866283655
13.8811620270045,-0.0200067002555865
13.9940170028338,-0.0205633400390346
14.1068719786631,-0.0211340103540465
14.2197269544924,-0.0216890619252864
14.3325819303217,-0.0222813088353696
14.445436906151,-0.0229028316115936
14.5582918819803,-0.0235251533843076
14.6711468578096,-0.0241748802847874
14.7840018336389,-0.0248216639439272
14.8968568094682,-0.0254792495003203
15.0097117852975,-0.0261495341128577
15.1225667611269,-0.0268508220619491
15.2354217369562,-0.0275471941898344
15.3482767127855,-0.0282593924329289
15.4611316886148,-0.0289939584550471
15.5739866644441,-0.0297305315306258
15.6868416402734,-0.0305027133011381
15.7996966161027,-0.0312451798439842
15.912551591932,-0.0320377124649297
16.0254065677613,-0.0328168178098541
16.1382615435906,-0.0336225232584998
16.2511165194199,-0.0344366103863177
16.3639714952492,-0.0352716020423737
16.4768264710785,-0.0360702441641055
16.5896814469078,-0.0369430254965833
16.7025364227371,-0.0377419501666065
16.8153913985664,-0.0385998432505545
16.9282463743957,-0.0394764306677384
17.041101350225,-0.0403348979543834
17.1539563260543,-0.041203640603344
17.2668113018836,-0.0420845867239946
17.3796662777129,-0.0429657400802471
17.4925212535423,-0.0438232194647563
17.6053762293716,-0.0446580933020612
17.7182312052009,-0.0455199282695309
17.8310861810302,-0.0463738407684018
17.9439411568595,-0.0472189699547857
18.0567961326888,-0.0480719407439451
18.1696511085181,-0.0489453110321615
18.2825060843474,-0.0497700699776737
18.3953610601767,-0.050523674574087
18.508216036006,-0.0513280302943612
18.6210710118353,-0.0520865577481039
18.7339259876646,-0.0528783778352884
18.8467809634939,-0.0535890474641937
18.9596359393232,-0.0542865276901935
19.0724909151525,-0.054931626073836
19.1853458909818,-0.0555411525327758
19.2982008668111,-0.0561451339436735
19.4110558426404,-0.0567000709992516
19.5239108184697,-0.0572085079850918
19.6367657942991,-0.0576860263194588
19.7496207701284,-0.0580858966313612
19.8624757459577,-0.0584567523616225
19.975330721787,-0.058777164387958
20.0881856976163,-0.0590346047990298
20.2010406734456,-0.0592229372332119
20.3138956492749,-0.0594006133353883
20.4267506251042,-0.0595073797050446
20.5396056009335,-0.0595598893332928
20.6524605767628,-0.0595605659484059
20.7653155525921,-0.0595165981396345
20.8781705284214,-0.05943866078353
20.9910255042507,-0.0593182427089401
21.10388048008,-0.0591009640973756
21.2167354559093,-0.0588618944666822
21.3295904317386,-0.0586160581177637
21.4424454075679,-0.0583142513694292
21.5553003833972,-0.0579839035978315
21.6681553592265,-0.0576097530228792
21.7810103350558,-0.0572369956423875
21.8938653108851,-0.0568138588010029
22.0067202867145,-0.056385848876086
22.1195752625438,-0.0559486527206072
22.2324302383731,-0.0554419936815408
22.3452852142024,-0.0549328890421511
22.4581401900317,-0.0544206593025458
22.570995165861,-0.0539058514503048
22.6838501416903,-0.0533628086836994
22.7967051175196,-0.0527945685694516
22.9095600933489,-0.0522403464812551
23.0224150691782,-0.0516626646448842
23.1352700450075,-0.0510938340461216
23.2481250208368,-0.0505127098931087
23.3609799966661,-0.0499209075300634
23.4738349724954,-0.0493581424776975
23.5866899483247,-0.0487520141549818
23.699544924154,-0.0482002961799254
23.8123998999833,-0.047625196342636
23.9252548758126,-0.0470622467814285
24.0381098516419,-0.0465376373511738
24.1509648274712,-0.0459796135354263
24.2638198033005,-0.0454388711465614
24.3766747791299,-0.044922211852578
24.4895297549592,-0.0444151664943834
24.6023847307885,-0.0439011613291532
24.7152397066178,-0.0434276198061457
24.8280946824471,-0.042931968492599
24.9409496582764,-0.0425176479625798
25.0538046341057,-0.0420749626100119
25.166659609935,-0.0416635581436844
25.2795145857643,-0.0413191978189561
25.3923695615936,-0.0409536116584301
25.5052245374229,-0.0405854616604096
25.6180795132522,-0.0402680934764061
25.7309344890815,-0.039999458690409
25.8437894649108,-0.0397415500702762
25.9566444407401,-0.0394926283178698
26.0694994165694,-0.0392615624879608
26.1823543923987,-0.0390413464369317
26.295209368228,-0.0388597779153438
26.4080643440573,-0.0386899657235385
26.5209193198866,-0.0385663516163711
26.633774295716,-0.0384259345556089
26.7466292715453,-0.0383271178748266
26.8594842473746,-0.0382392980045395
26.9723392232039,-0.0382001145929818
27.0851941990332,-0.0381799965239493
27.1980491748625,-0.0381655023395811
27.3109041506918,-0.0381396179994733
27.4237591265211,-0.0381993829742637
27.5366141023504,-0.0382266375671732
27.6494690781797,-0.0383042036921392
27.762324054009,-0.0383755277538189
27.8751790298383,-0.0385114044691504
27.9880340056676,-0.0386493892502044
28.1008889814969,-0.0387791324288931
28.2137439573262,-0.0389465879975247
28.3265989331555,-0.0391422898124976
28.4394539089848,-0.0393811247395438
28.5523088848141,-0.0396531244864281
28.6651638606434,-0.0399151220838158
28.7780188364727,-0.0402233772161213
28.8908738123021,-0.0405319047200067
29.0037287881314,-0.0408875167486852
29.1165837639607,-0.0412520389111716
29.22943873979,-0.0416573503077999
29.3422937156193,-0.0420567797420761
29.4551486914486,-0.0424808740583268
29.5680036672779,-0.042926689766565
29.6808586431072,-0.0434083241569423
29.7937136189365,-0.0438984042096226
29.9065685947658,-0.0444050484837684
30.0194235705951,-0.0449385659736754
30.1322785464244,-0.045468839560457
30.2451335222537,-0.0460500337656769
30.357988498083,-0.0466158744449682
30.4708434739123,-0.0472401296585655
30.5836984497416,-0.047882535991743
30.6965534255709,-0.0484932651191006
30.8094084014002,-0.049119435483237
30.9222633772295,-0.0498043731363535
31.0351183530588,-0.0504772424737791
31.1479733288881,-0.0511328226167169
31.2608283047174,-0.0518255536041667
31.3736832805468,-0.052530887404913
31.4865382563761,-0.0532407084622098
31.5993932322054,-0.0539376214027041
31.7122482080347,-0.0546350550400669
31.825103183864,-0.0553778173124815
31.9379581596933,-0.0560818907320933
32.0508131355226,-0.0567782497214793
32.1636681113519,-0.0574956068069071
32.2765230871812,-0.0582244243885695
32.3893780630105,-0.0589044150032507
32.5022330388398,-0.0595953455939824
32.6150880146691,-0.0602751182182925
32.7279429904984,-0.0609229473420925
32.8407979663277,-0.0616232231648258
32.953652942157,-0.0622526746574804
33.0665079179863,-0.0628286172959751
33.1793628938156,-0.0633994933858456
33.2922178696449,-0.0639668408725604
33.4050728454742,-0.0645441154976754
33.5179278213036,-0.0649673740340282
33.6307827971329,-0.065418409389911
33.7436377729622,-0.0658195200930342
33.8564927487915,-0.066170880796892
33.9693477246208,-0.0664938183211985
34.0822027004501,-0.0667277773856237
34.1950576762794,-0.0669883805119548
34.3079126521087,-0.0671168055982736
34.420767627938,-0.0672525486761602
34.5336226037673,-0.0673181435590942
34.6464775795966,-0.0673366531490302
34.7593325554259,-0.0673371906670683
34.8721875312552,-0.0672904642051832
34.9850425070845,-0.0671309857628859
35.0978974829138,-0.0670455695048986
35.2107524587431,-0.0668613232580845
35.3236074345724,-0.0665475431060955
35.4364624104017,-0.0663352605106049
35.549317386231,-0.066032401923607
35.6621723620603,-0.0657045792947788
35.7750273378896,-0.0653313946293487
35.8878823137189,-0.0649557164736158
36.0007372895483,-0.0645511002803087
36.1135922653776,-0.0641056530058005
36.2264472412069,-0.0636778882487051
36.3393022170362,-0.0632103476958728
36.4521571928655,-0.062674525792268
36.5650121686948,-0.0621898098321306
36.6778671445241,-0.0616571889834293
36.7907221203534,-0.0611775385093581
36.9035770961827,-0.0606489032763105
37.016432072012,-0.0600790288244132
37.1292870478413,-0.0595543061822264
37.2421420236706,-0.0589212769004947
37.3549969994999,-0.0584336976192833
37.4678519753292,-0.0578224703409794
37.5807069511585,-0.0572683949803267
37.6935619269878,-0.0567218130418612
37.8064169028171,-0.0562531636052446
37.9192718786464,-0.0556814581982641
38.0321268544757,-0.0551262393751026
38.144981830305,-0.0546321097601185
38.2578368061344,-0.0541392238012736
38.3706917819637,-0.0536511295532879
38.483546757793,-0.0531235877296838
38.5964017336223,-0.0527025141062337
38.7092567094516,-0.0521815088014335
38.8221116852809,-0.0518095268128788
38.9349666611102,-0.0514087415894604
39.0478216369395,-0.0510083059176177
39.1606766127688,-0.0506439298317576
39.2735315885981,-0.0502747290129513
39.3863865644274,-0.0500271847049335
39.4992415402567,-0.0496944723692374
39.612096516086,-0.0494705010777633
39.7249514919153,-0.0491983825973654
39.8378064677446,-0.0489644180003279
39.9506614435739,-0.048842191652441
40.0635164194032,-0.0485940760637453
40.1763713952325,-0.0484818816354444
40.2892263710618,-0.0483742088957057
40.4020813468911,-0.0483044027473403
40.5149363227205,-0.0482882504094616
40.6277912985498,-0.0482678451623184
40.7406462743791,-0.0482542675511683
40.8535012502084,-0.0482697951582675
40.9663562260377,-0.048318953856375
41.079211201867,-0.0484091496799531
41.1920661776963,-0.0484557302469744
41.3049211535256,-0.0485996284110662
41.4177761293549,-0.0487467046354901
41.5306311051842,-0.0489440363455968
41.6434860810135,-0.0491931431611464
41.7563410568428,-0.0494317389235968
41.8691960326721,-0.0496661805487946
41.9820510085014,-0.0500262316391915
42.0949059843307,-0.0503545356392421
42.20776096016,-0.0506473281363197
42.3206159359893,-0.0510663254976789
42.4334709118186,-0.0515238781303035
42.5463258876479,-0.0519666763819818
42.6591808634772,-0.0524402647697835
42.7720358393066,-0.0529310055977448
42.8848908151359,-0.0535060090248864
42.9977457909652,-0.0540378421846399
43.1106007667945,-0.0546793530428727
43.2234557426238,-0.0553396843778905
43.3363107184531,-0.0559690235196063
43.4491656942824,-0.0566990938947968
43.5620206701117,-0.0573489689518257
43.674875645941,-0.0581055626984244
43.7877306217703,-0.0588986464956999
43.9005855975996,-0.0596900936754129
44.0134405734289,-0.0605341673448557
44.1262955492582,-0.0614275215783165
44.2391505250875,-0.0623020869725064
44.3520055009168,-0.0631861690491711
44.4648604767461,-0.0641714799052791
44.5777154525754,-0.0651340893499235
44.6905704284047,-0.0661017710610684
44.803425404234,-0.0671487858131266
44.9162803800633,-0.0681481884033174
45.0291353558926,-0.069218453899546
45.141990331722,-0.0703302216371811
45.2548453075513,-0.0713919540651608
45.3677002833806,-0.0725521700714537
45.4805552592099,-0.0736426100841505
45.5934102350392,-0.074782864139942
45.7062652108685,-0.0759809617555953
45.8191201866978,-0.0770578473665248
45.9319751625271,-0.0783284554330592
46.0448301383564,-0.079397805875999
46.1576851141857,-0.0805469790578863
46.270540090015,-0.0817218932354064
46.3833950658443,-0.0829612133131189
46.4962500416736,-0.0840381684304662
46.6091050175029,-0.0851276498733243
46.7219599933322,-0.0862372922686902
46.8348149691615,-0.0873496376477638
46.9476699449908,-0.08847959306109
47.0605249208201,-0.0894921797351165
47.1733798966494,-0.0904734549862843
47.2862348724787,-0.091411699392121
47.399089848308,-0.0924177606993999
47.5119448241374,-0.0933116332035558
47.6247997999667,-0.0941225930839468
47.737654775796,-0.0949476090520269
47.8505097516253,-0.0955867968987693
47.9633647274546,-0.0962879139658822
48.0762197032839,-0.0968609450965326
48.1890746791132,-0.0974098946626481
48.3019296549425,-0.0978536091259437
48.4147846307718,-0.0982485517627454
48.5276396066011,-0.0985434466034424
48.6404945824304,-0.0987729920016512
48.7533495582597,-0.098964505414534
48.866204534089,-0.0990867684016896
48.9790595099183,-0.0990608001867425
49.0919144857476,-0.0990560658514565
49.2047694615769,-0.0989230466291907
49.3176244374062,-0.0987094360410047
49.4304794132355,-0.0984526358493577
49.5433343890648,-0.0981326200788683
49.6561893648941,-0.0976983811428815
49.7690443407235,-0.0972650437392551
49.8818993165528,-0.0967414533186855
49.9947542923821,-0.0961918142835185
50.1076092682114,-0.0956422412821359
50.2204642440407,-0.0949788441364666
50.33331921987,-0.0942441203803241
50.4461741956993,-0.0935164881997218
50.5590291715286,-0.0926721188859806
50.6718841473579,-0.0918420384455497
50.7847391231872,-0.0909472276833156
50.8975940990165,-0.0899883506274445
51.0104490748458,-0.0890556184550678
51.1233040506751,-0.0880599036530062
51.2361590265044,-0.0870555381517116
51.3490140023337,-0.0859783007737113
51.461868978163,-0.0849170191813654
51.5747239539923,-0.0838226946914224
51.6875789298216,-0.082731584648732
51.8004339056509,-0.0816274789733281
51.9132888814802,-0.0805720142786304
52.0261438573095,-0.0794357819028114
52.1389988331389,-0.0783393212457281
52.2518538089682,-0.077192964100112
52.3647087847975,-0.0761266158466945
52.4775637606268,-0.075064829873305
52.5904187364561,-0.0739243640664994
52.7032737122854,-0.072871889100762
52.8161286881147,-0.0718338903558552
52.928983663944,-0.070787452618582
53.0418386397733,-0.069778007981726
53.1546936156026,-0.0687895656960808
53.2675485914319,-0.067833749872306
53.3804035672612,-0.0668818491348005
53.4932585430905,-0.0659627983790087
53.6061135189198,-0.0650957488469892
53.7189684947491,-0.0642222592967739
53.8318234705784,-0.0634132818436818
53.9446784464077,-0.0625970669792165
54.057533422237,-0.0618672073900561
54.1703883980663,-0.0611209444109074
54.2832433738956,-0.0604200183016924
54.3960983497249,-0.0597712787871708
54.5089533255543,-0.0591335510042743
54.6218083013836,-0.0585185267312559
54.7346632772129,-0.0579491280363286
54.8475182530422,-0.0574054489901554
54.9603732288715,-0.0569070234999115
55.0732282047008,-0.056468781437208
55.1860831805301,-0.056045423423456
55.2989381563594,-0.0555979885488196
55.4117931321887,-0.0552024001986621
55.524648108018,-0.0549320355420576
55.6375030838473,-0.0546488704860234
55.7503580596766,-0.0543488511886126
55.8632130355059,-0.0540961412142913
55.9760680113352,-0.0538608521712023
56.0889229871645,-0.0537122090144001
56.2017779629938,-0.0536138308326832
56.3146329388231,-0.0534761298444717
56.4274879146524,-0.0534123427352204
56.5403428904817,-0.0534037581853036
56.653197866311,-0.0534260109126029
56.7660528421404,-0.0534084911888422
56.8789078179697,-0.0534887857468051
56.991762793799,-0.0536347653739753
57.1046177696283,-0.053745134974726
57.2174727454576,-0.0539478447809182
57.3303277212869,-0.0541907900840682
57.4431826971162,-0.0544194543704862
57.5560376729455,-0.0547119453278327
57.6688926487748,-0.0549965520129016
57.7817476246041,-0.0553723739283291
57.8946026004334,-0.0557481354633938
58.0074575762627,-0.0561575122818569
58.120312552092,-0.0565781681138889
58.2331675279213,-0.0570807679210688
58.3460225037506,-0.0575245489407055
58.4588774795799,-0.0580798904022015
58.5717324554092,-0.0586226326419102
58.6845874312385,-0.0591909280880954
58.7974424070678,-0.0598109988230647
58.9102973828971,-0.0604405464494079
59.0231523587264,-0.0610899852663201
59.1360073345558,-0.0617576274804887
59.2488623103851,-0.0624721940363608
